09-26-2023,10:48:17
Wavenumber(cm-1),Intensity
 250 , 4611.99 
 251 , 4611.99 
 252 , 4574.61 
 253 , 4541.03 
 254 , 4511.81 
 255 , 4487.13 
 256 , 4466.44 
 257 , 4449.16 
 258 , 4435.23 
 259 , 4424.89 
 260 , 4416.44 
 261 , 4405.52 
 262 , 4388.66 
 263 , 4368.91 
 264 , 4351.65 
 265 , 4338.53 
 266 , 4325.8 
 267 , 4309.97 
 268 , 4292.45 
 269 , 4276.65 
 270 , 4264.21 
 271 , 4253.54 
 272 , 4242.8 
 273 , 4231.94 
 274 , 4222.01 
 275 , 4212.82 
 276 , 4201.48 
 277 , 4185.47 
 278 , 4167.32 
 279 , 4151.54 
 280 , 4139.24 
 281 , 4126.64 
 282 , 4110.92 
 283 , 4096 
 284 , 4088 
 285 , 4088.25 
 286 , 4091.93 
 287 , 4094.14 
 288 , 4093.91 
 289 , 4092.03 
 290 , 4090.1 
 291 , 4089.19 
 292 , 4089.15 
 293 , 4088.35 
 294 , 4085.74 
 295 , 4083.32 
 296 , 4084.11 
 297 , 4088.15 
 298 , 4091.73 
 299 , 4091.85 
 300 , 4089.81 
 301 , 4088.63 
 302 , 4088.77 
 303 , 4087.53 
 304 , 4082.66 
 305 , 4075.6 
 306 , 4069.87 
 307 , 4067 
 308 , 4065.2 
 309 , 4062.74 
 310 , 4060.21 
 311 , 4059.62 
 312 , 4062.12 
 313 , 4066.51 
 314 , 4071.33 
 315 , 4074.99 
 316 , 4075.29 
 317 , 4070.52 
 318 , 4063.26 
 319 , 4057.36 
 320 , 4052.7 
 321 , 4045.58 
 322 , 4033.96 
 323 , 4022.55 
 324 , 4017.96 
 325 , 4020.88 
 326 , 4026.66 
 327 , 4031.2 
 328 , 4035.56 
 329 , 4042.74 
 330 , 4052.31 
 331 , 4061.11 
 332 , 4066.91 
 333 , 4070.42 
 334 , 4072.88 
 335 , 4074.07 
 336 , 4072.76 
 337 , 4068.87 
 338 , 4064.26 
 339 , 4060.56 
 340 , 4057.59 
 341 , 4055.23 
 342 , 4053.9 
 343 , 4053.5 
 344 , 4052.84 
 345 , 4050.45 
 346 , 4046.17 
 347 , 4041.04 
 348 , 4035.71 
 349 , 4029.98 
 350 , 4025.07 
 351 , 4024.59 
 352 , 4029.63 
 353 , 4036.18 
 354 , 4039.71 
 355 , 4040.09 
 356 , 4040.05 
 357 , 4041.03 
 358 , 4040.69 
 359 , 4036.51 
 360 , 4030.05 
 361 , 4025.38 
 362 , 4024.21 
 363 , 4024.26 
 364 , 4022.6 
 365 , 4018.61 
 366 , 4013.7 
 367 , 4010.28 
 368 , 4008.92 
 369 , 4009.36 
 370 , 4012.81 
 371 , 4020.49 
 372 , 4028.59 
 373 , 4031.12 
 374 , 4027.65 
 375 , 4024.29 
 376 , 4025.38 
 377 , 4027.02 
 378 , 4023.68 
 379 , 4018.4 
 380 , 4021.26 
 381 , 4037.58 
 382 , 4059.95 
 383 , 4079.69 
 384 , 4096.74 
 385 , 4116 
 386 , 4138.78 
 387 , 4159.54 
 388 , 4172.59 
 389 , 4176.64 
 390 , 4172.35 
 391 , 4161.44 
 392 , 4146.79 
 393 , 4130.8 
 394 , 4113.67 
 395 , 4095.1 
 396 , 4077.25 
 397 , 4064.47 
 398 , 4059.36 
 399 , 4059.16 
 400 , 4060.46 
 401 , 4062.87 
 402 , 4067.95 
 403 , 4076.24 
 404 , 4086 
 405 , 4095.04 
 406 , 4100.31 
 407 , 4098.61 
 408 , 4090.39 
 409 , 4080.61 
 410 , 4073.27 
 411 , 4067.43 
 412 , 4061.12 
 413 , 4054.91 
 414 , 4051.14 
 415 , 4050.32 
 416 , 4049.42 
 417 , 4045.62 
 418 , 4039.39 
 419 , 4032.1 
 420 , 4023.66 
 421 , 4014.31 
 422 , 4005.15 
 423 , 3996.97 
 424 , 3989.5 
 425 , 3981.32 
 426 , 3970.83 
 427 , 3958.16 
 428 , 3948.65 
 429 , 3948.51 
 430 , 3956.72 
 431 , 3966.2 
 432 , 3971.68 
 433 , 3974.93 
 434 , 3978.91 
 435 , 3981.94 
 436 , 3979.23 
 437 , 3968.97 
 438 , 3955.89 
 439 , 3945.28 
 440 , 3938.38 
 441 , 3934.68 
 442 , 3933.7 
 443 , 3935.44 
 444 , 3939.82 
 445 , 3946.95 
 446 , 3957.32 
 447 , 3970.87 
 448 , 3986.49 
 449 , 4001 
 450 , 4010.06 
 451 , 4011.8 
 452 , 4009.11 
 453 , 4004.76 
 454 , 3998.31 
 455 , 3988.85 
 456 , 3978.16 
 457 , 3969.27 
 458 , 3963.5 
 459 , 3958.95 
 460 , 3953.44 
 461 , 3947.05 
 462 , 3940.99 
 463 , 3935.44 
 464 , 3929.85 
 465 , 3924.12 
 466 , 3919.17 
 467 , 3916.28 
 468 , 3915.68 
 469 , 3915.64 
 470 , 3914.2 
 471 , 3911.79 
 472 , 3910.46 
 473 , 3911.5 
 474 , 3914.2 
 475 , 3917.28 
 476 , 3919.83 
 477 , 3921.54 
 478 , 3922.5 
 479 , 3922.84 
 480 , 3922.2 
 481 , 3919.42 
 482 , 3913.25 
 483 , 3904.43 
 484 , 3895.18 
 485 , 3887.12 
 486 , 3879.97 
 487 , 3872.77 
 488 , 3865.5 
 489 , 3858.93 
 490 , 3854.07 
 491 , 3851.77 
 492 , 3852.42 
 493 , 3855.45 
 494 , 3859.88 
 495 , 3865.93 
 496 , 3875.25 
 497 , 3887.96 
 498 , 3900.6 
 499 , 3909.15 
 500 , 3912.69 
 501 , 3911.91 
 502 , 3907.28 
 503 , 3898.25 
 504 , 3884.75 
 505 , 3869.11 
 506 , 3854.33 
 507 , 3842.14 
 508 , 3833.3 
 509 , 3827.03 
 510 , 3821.29 
 511 , 3815.34 
 512 , 3811.69 
 513 , 3812.59 
 514 , 3816.42 
 515 , 3820.24 
 516 , 3823.52 
 517 , 3827.93 
 518 , 3833.49 
 519 , 3836.25 
 520 , 3832.49 
 521 , 3825.41 
 522 , 3822.43 
 523 , 3826.78 
 524 , 3834.36 
 525 , 3841.41 
 526 , 3848.02 
 527 , 3854.78 
 528 , 3859.66 
 529 , 3859.19 
 530 , 3852.59 
 531 , 3844.27 
 532 , 3838.28 
 533 , 3835.25 
 534 , 3834.5 
 535 , 3834.84 
 536 , 3834.2 
 537 , 3830.91 
 538 , 3825.4 
 539 , 3818.78 
 540 , 3812.73 
 541 , 3809.02 
 542 , 3809.3 
 543 , 3814.94 
 544 , 3826.57 
 545 , 3841.94 
 546 , 3858.39 
 547 , 3875.02 
 548 , 3891.96 
 549 , 3908.52 
 550 , 3922.83 
 551 , 3933.61 
 552 , 3941.31 
 553 , 3946.05 
 554 , 3947.85 
 555 , 3948.1 
 556 , 3948.5 
 557 , 3948.86 
 558 , 3947.8 
 559 , 3944.58 
 560 , 3940.05 
 561 , 3936.29 
 562 , 3935.55 
 563 , 3938.34 
 564 , 3941.68 
 565 , 3942.71 
 566 , 3942.34 
 567 , 3942.99 
 568 , 3943.88 
 569 , 3940.51 
 570 , 3930.73 
 571 , 3920.07 
 572 , 3914.43 
 573 , 3910.88 
 574 , 3902.19 
 575 , 3886.71 
 576 , 3869.4 
 577 , 3853.82 
 578 , 3838.87 
 579 , 3823.45 
 580 , 3807.69 
 581 , 3790.97 
 582 , 3772.97 
 583 , 3755.61 
 584 , 3740.89 
 585 , 3727.48 
 586 , 3712.78 
 587 , 3699.76 
 588 , 3695.95 
 589 , 3703.99 
 590 , 3717.46 
 591 , 3730.15 
 592 , 3742 
 593 , 3754.88 
 594 , 3769.18 
 595 , 3783.82 
 596 , 3797.91 
 597 , 3811.46 
 598 , 3824.91 
 599 , 3839.09 
 600 , 3854.48 
 601 , 3869.6 
 602 , 3882.01 
 603 , 3891.17 
 604 , 3899.11 
 605 , 3907.28 
 606 , 3914.08 
 607 , 3917.4 
 608 , 3919.22 
 609 , 3924.1 
 610 , 3935.15 
 611 , 3953.08 
 612 , 3977.43 
 613 , 4004.5 
 614 , 4030.16 
 615 , 4052.27 
 616 , 4069.58 
 617 , 4079.72 
 618 , 4078.88 
 619 , 4065.8 
 620 , 4048.08 
 621 , 4034.36 
 622 , 4025.63 
 623 , 4018.83 
 624 , 4012.86 
 625 , 4009.04 
 626 , 4007.52 
 627 , 4004.62 
 628 , 3996.47 
 629 , 3983.2 
 630 , 3966.79 
 631 , 3949.53 
 632 , 3934.01 
 633 , 3922.1 
 634 , 3913.78 
 635 , 3909.03 
 636 , 3909.79 
 637 , 3918.65 
 638 , 3934.19 
 639 , 3951.2 
 640 , 3967.59 
 641 , 3988.51 
 642 , 4018.58 
 643 , 4054.09 
 644 , 4088.75 
 645 , 4120.83 
 646 , 4152.33 
 647 , 4179.85 
 648 , 4189.98 
 649 , 4172.61 
 650 , 4137.44 
 651 , 4098.84 
 652 , 4060.35 
 653 , 4018.26 
 654 , 3974.96 
 655 , 3942.14 
 656 , 3928.2 
 657 , 3927.19 
 658 , 3930.45 
 659 , 3933.8 
 660 , 3935.53 
 661 , 3935.82 
 662 , 3937.05 
 663 , 3940.4 
 664 , 3943.24 
 665 , 3943.09 
 666 , 3943.37 
 667 , 3949.75 
 668 , 3962.57 
 669 , 3977.2 
 670 , 3988.43 
 671 , 3990.24 
 672 , 3978.22 
 673 , 3956.82 
 674 , 3933.28 
 675 , 3913.1 
 676 , 3900.17 
 677 , 3896.7 
 678 , 3903.38 
 679 , 3919.8 
 680 , 3940.48 
 681 , 3958.68 
 682 , 3968.03 
 683 , 3962.97 
 684 , 3946.98 
 685 , 3933.14 
 686 , 3930.22 
 687 , 3935.27 
 688 , 3944.06 
 689 , 3955.53 
 690 , 3969.69 
 691 , 3982.69 
 692 , 3987.51 
 693 , 3980.87 
 694 , 3966.26 
 695 , 3947.86 
 696 , 3929.32 
 697 , 3913.9 
 698 , 3903.59 
 699 , 3899.83 
 700 , 3903.84 
 701 , 3916.69 
 702 , 3937.38 
 703 , 3960.21 
 704 , 3979.83 
 705 , 3995.92 
 706 , 4009.47 
 707 , 4018.76 
 708 , 4020.39 
 709 , 4014.77 
 710 , 4007.85 
 711 , 4004.35 
 712 , 4003.7 
 713 , 4004.3 
 714 , 4004.41 
 715 , 4002.21 
 716 , 3998.85 
 717 , 3998.52 
 718 , 4003.54 
 719 , 4011.87 
 720 , 4021.88 
 721 , 4036.47 
 722 , 4059.19 
 723 , 4087.84 
 724 , 4117.01 
 725 , 4145.85 
 726 , 4178.4 
 727 , 4215.14 
 728 , 4248.24 
 729 , 4270.31 
 730 , 4279.91 
 731 , 4276.8 
 732 , 4260.42 
 733 , 4231.62 
 734 , 4195.67 
 735 , 4162.09 
 736 , 4137.33 
 737 , 4119.41 
 738 , 4105.12 
 739 , 4092.18 
 740 , 4078.62 
 741 , 4064.07 
 742 , 4049.75 
 743 , 4036.47 
 744 , 4024.28 
 745 , 4013.42 
 746 , 4004.77 
 747 , 3999.17 
 748 , 3996.68 
 749 , 3996.95 
 750 , 4000.3 
 751 , 4007.86 
 752 , 4019.43 
 753 , 4031.47 
 754 , 4040.51 
 755 , 4045.83 
 756 , 4047.55 
 757 , 4046.54 
 758 , 4044.06 
 759 , 4041.57 
 760 , 4040.91 
 761 , 4042.83 
 762 , 4045.03 
 763 , 4044.96 
 764 , 4042.51 
 765 , 4038.86 
 766 , 4035.02 
 767 , 4030.88 
 768 , 4026.38 
 769 , 4023.63 
 770 , 4025.55 
 771 , 4032.26 
 772 , 4041.57 
 773 , 4051.22 
 774 , 4060.83 
 775 , 4071.42 
 776 , 4082.63 
 777 , 4091.77 
 778 , 4096.7 
 779 , 4097.95 
 780 , 4097.81 
 781 , 4097.61 
 782 , 4098.67 
 783 , 4102.73 
 784 , 4109.06 
 785 , 4115.07 
 786 , 4119.08 
 787 , 4120.78 
 788 , 4120.04 
 789 , 4116.54 
 790 , 4110.41 
 791 , 4104.24 
 792 , 4101.19 
 793 , 4102.36 
 794 , 4107.39 
 795 , 4112.4 
 796 , 4110.6 
 797 , 4100.1 
 798 , 4086.95 
 799 , 4075.61 
 800 , 4063.22 
 801 , 4047.33 
 802 , 4040.1 
 803 , 4059.15 
 804 , 4100.13 
 805 , 4139.77 
 806 , 4166.24 
 807 , 4187.11 
 808 , 4207.02 
 809 , 4215.31 
 810 , 4201.09 
 811 , 4171.91 
 812 , 4142.01 
 813 , 4119.32 
 814 , 4107.16 
 815 , 4104.47 
 816 , 4103.92 
 817 , 4101.81 
 818 , 4105.84 
 819 , 4122.45 
 820 , 4142.58 
 821 , 4153.81 
 822 , 4157.38 
 823 , 4162.06 
 824 , 4170.01 
 825 , 4176.32 
 826 , 4178.68 
 827 , 4180.22 
 828 , 4183.79 
 829 , 4190.49 
 830 , 4200.44 
 831 , 4209.11 
 832 , 4210.69 
 833 , 4207.38 
 834 , 4206.73 
 835 , 4209.71 
 836 , 4209.11 
 837 , 4201.55 
 838 , 4192.76 
 839 , 4187.41 
 840 , 4182.39 
 841 , 4173.51 
 842 , 4161.14 
 843 , 4147.65 
 844 , 4137.36 
 845 , 4136.85 
 846 , 4147.34 
 847 , 4160.29 
 848 , 4169.3 
 849 , 4178.22 
 850 , 4191.15 
 851 , 4201.83 
 852 , 4201.09 
 853 , 4190.27 
 854 , 4177.39 
 855 , 4166.76 
 856 , 4158.6 
 857 , 4153.01 
 858 , 4149.47 
 859 , 4146.84 
 860 , 4143.7 
 861 , 4139.22 
 862 , 4134.04 
 863 , 4128.97 
 864 , 4126.4 
 865 , 4130.59 
 866 , 4142.5 
 867 , 4157.42 
 868 , 4171.03 
 869 , 4182.85 
 870 , 4192.9 
 871 , 4198.22 
 872 , 4195.62 
 873 , 4189.01 
 874 , 4185.54 
 875 , 4186.01 
 876 , 4185.94 
 877 , 4183.58 
 878 , 4181.56 
 879 , 4182.85 
 880 , 4190.98 
 881 , 4207.87 
 882 , 4226.66 
 883 , 4238.87 
 884 , 4244.38 
 885 , 4247.05 
 886 , 4246 
 887 , 4236.58 
 888 , 4220.21 
 889 , 4206.97 
 890 , 4203.05 
 891 , 4203.25 
 892 , 4201.24 
 893 , 4194.42 
 894 , 4182.01 
 895 , 4167.43 
 896 , 4155.41 
 897 , 4148.06 
 898 , 4146.1 
 899 , 4151.28 
 900 , 4165.88 
 901 , 4188.09 
 902 , 4208.07 
 903 , 4218.36 
 904 , 4223.21 
 905 , 4228.64 
 906 , 4235.95 
 907 , 4245 
 908 , 4256.38 
 909 , 4270.51 
 910 , 4285.84 
 911 , 4299.71 
 912 , 4310.09 
 913 , 4314.51 
 914 , 4312.06 
 915 , 4309.5 
 916 , 4313.44 
 917 , 4317.44 
 918 , 4310.96 
 919 , 4293.15 
 920 , 4269.25 
 921 , 4245.09 
 922 , 4226.38 
 923 , 4215.59 
 924 , 4210.99 
 925 , 4211.17 
 926 , 4215.58 
 927 , 4222.49 
 928 , 4225.81 
 929 , 4220.1 
 930 , 4210.49 
 931 , 4205.84 
 932 , 4208.72 
 933 , 4217.77 
 934 , 4229.98 
 935 , 4239.7 
 936 , 4243.52 
 937 , 4243.01 
 938 , 4240.02 
 939 , 4235.31 
 940 , 4229.68 
 941 , 4225.49 
 942 , 4225.46 
 943 , 4229.85 
 944 , 4237.49 
 945 , 4245.31 
 946 , 4248.75 
 947 , 4248.05 
 948 , 4250.1 
 949 , 4257.63 
 950 , 4263.78 
 951 , 4264.21 
 952 , 4266.57 
 953 , 4278.2 
 954 , 4291.01 
 955 , 4293.19 
 956 , 4288.13 
 957 , 4287.1 
 958 , 4291.37 
 959 , 4293.58 
 960 , 4290.94 
 961 , 4287.05 
 962 , 4284.13 
 963 , 4280.88 
 964 , 4275.94 
 965 , 4268.71 
 966 , 4258.95 
 967 , 4248 
 968 , 4237.67 
 969 , 4228.67 
 970 , 4221.06 
 971 , 4216.28 
 972 , 4216.83 
 973 , 4222.08 
 974 , 4227.68 
 975 , 4231.84 
 976 , 4237.46 
 977 , 4245.92 
 978 , 4253.29 
 979 , 4256.22 
 980 , 4257.46 
 981 , 4260.95 
 982 , 4266.97 
 983 , 4274.36 
 984 , 4283.28 
 985 , 4294.69 
 986 , 4308.78 
 987 , 4324.93 
 988 , 4339.63 
 989 , 4344.94 
 990 , 4336.32 
 991 , 4318.38 
 992 , 4296.73 
 993 , 4275.84 
 994 , 4259.72 
 995 , 4251.46 
 996 , 4253.75 
 997 , 4268.09 
 998 , 4294.85 
 999 , 4328.05 
 1000 , 4356.69 
 1001 , 4374.83 
 1002 , 4382.89 
 1003 , 4381.79 
 1004 , 4372.56 
 1005 , 4356.68 
 1006 , 4336.9 
 1007 , 4316.06 
 1008 , 4296.26 
 1009 , 4278.79 
 1010 , 4261.7 
 1011 , 4242.33 
 1012 , 4223.44 
 1013 , 4210.48 
 1014 , 4202.6 
 1015 , 4193.7 
 1016 , 4185.45 
 1017 , 4189.2 
 1018 , 4207.67 
 1019 , 4226.88 
 1020 , 4236.72 
 1021 , 4242.22 
 1022 , 4248.04 
 1023 , 4247.35 
 1024 , 4232.95 
 1025 , 4213.24 
 1026 , 4201.35 
 1027 , 4199.17 
 1028 , 4202.16 
 1029 , 4203.65 
 1030 , 4195.71 
 1031 , 4175.93 
 1032 , 4148.12 
 1033 , 4118.01 
 1034 , 4094.21 
 1035 , 4083.45 
 1036 , 4086.58 
 1037 , 4102.93 
 1038 , 4130.56 
 1039 , 4166.59 
 1040 , 4202.34 
 1041 , 4228.22 
 1042 , 4244.96 
 1043 , 4258.09 
 1044 , 4268.9 
 1045 , 4275.61 
 1046 , 4279.31 
 1047 , 4284.16 
 1048 , 4289.53 
 1049 , 4288.02 
 1050 , 4277.36 
 1051 , 4265.74 
 1052 , 4259.94 
 1053 , 4260.03 
 1054 , 4265.01 
 1055 , 4273.84 
 1056 , 4284.93 
 1057 , 4293.96 
 1058 , 4296.64 
 1059 , 4295.09 
 1060 , 4293.9 
 1061 , 4294.5 
 1062 , 4296.64 
 1063 , 4300.56 
 1064 , 4306.4 
 1065 , 4311.91 
 1066 , 4312.61 
 1067 , 4307.33 
 1068 , 4300.08 
 1069 , 4293.97 
 1070 , 4289.88 
 1071 , 4288.02 
 1072 , 4285.97 
 1073 , 4280.94 
 1074 , 4273.54 
 1075 , 4265.8 
 1076 , 4258.95 
 1077 , 4253.43 
 1078 , 4249.98 
 1079 , 4250.09 
 1080 , 4255.85 
 1081 , 4269.1 
 1082 , 4285.95 
 1083 , 4296.85 
 1084 , 4298.8 
 1085 , 4298.49 
 1086 , 4299.13 
 1087 , 4296.32 
 1088 , 4288.15 
 1089 , 4280.75 
 1090 , 4278.61 
 1091 , 4277.18 
 1092 , 4271.82 
 1093 , 4265.7 
 1094 , 4262.86 
 1095 , 4260.98 
 1096 , 4256.29 
 1097 , 4251.02 
 1098 , 4250.03 
 1099 , 4253.29 
 1100 , 4257.69 
 1101 , 4262.34 
 1102 , 4267.67 
 1103 , 4272.89 
 1104 , 4276.46 
 1105 , 4277.39 
 1106 , 4275.04 
 1107 , 4268.92 
 1108 , 4259.97 
 1109 , 4249.83 
 1110 , 4240.4 
 1111 , 4233.87 
 1112 , 4234.64 
 1113 , 4246.41 
 1114 , 4265.47 
 1115 , 4286.18 
 1116 , 4305.43 
 1117 , 4320.26 
 1118 , 4326.78 
 1119 , 4322.13 
 1120 , 4310.2 
 1121 , 4299.36 
 1122 , 4293.97 
 1123 , 4294.89 
 1124 , 4300.84 
 1125 , 4306.79 
 1126 , 4308.96 
 1127 , 4306.98 
 1128 , 4300.82 
 1129 , 4290.25 
 1130 , 4276.92 
 1131 , 4268.47 
 1132 , 4271.26 
 1133 , 4281.31 
 1134 , 4292.47 
 1135 , 4300.75 
 1136 , 4303.12 
 1137 , 4301.96 
 1138 , 4301.94 
 1139 , 4301.22 
 1140 , 4294.42 
 1141 , 4283.44 
 1142 , 4275.49 
 1143 , 4273.59 
 1144 , 4276.81 
 1145 , 4285.65 
 1146 , 4301.83 
 1147 , 4324.21 
 1148 , 4348.74 
 1149 , 4371.63 
 1150 , 4387.2 
 1151 , 4392.15 
 1152 , 4393.58 
 1153 , 4398.68 
 1154 , 4405.36 
 1155 , 4409.53 
 1156 , 4411.08 
 1157 , 4411.13 
 1158 , 4407.16 
 1159 , 4396.05 
 1160 , 4383.32 
 1161 , 4377.77 
 1162 , 4379.92 
 1163 , 4385.76 
 1164 , 4396.14 
 1165 , 4415.07 
 1166 , 4435.75 
 1167 , 4441.97 
 1168 , 4432.11 
 1169 , 4421.01 
 1170 , 4413.93 
 1171 , 4401.64 
 1172 , 4382.87 
 1173 , 4371.26 
 1174 , 4372.7 
 1175 , 4374.21 
 1176 , 4366.09 
 1177 , 4353.06 
 1178 , 4339.47 
 1179 , 4321.79 
 1180 , 4297.56 
 1181 , 4274.4 
 1182 , 4260.86 
 1183 , 4256.7 
 1184 , 4258.46 
 1185 , 4262.35 
 1186 , 4264.99 
 1187 , 4262.57 
 1188 , 4251.25 
 1189 , 4235.35 
 1190 , 4223.63 
 1191 , 4215.6 
 1192 , 4203.67 
 1193 , 4185.7 
 1194 , 4165.95 
 1195 , 4149.09 
 1196 , 4137.44 
 1197 , 4133.67 
 1198 , 4143.87 
 1199 , 4171.24 
 1200 , 4211.33 
 1201 , 4254.14 
 1202 , 4285.81 
 1203 , 4300.61 
 1204 , 4303.99 
 1205 , 4300.58 
 1206 , 4295.79 
 1207 , 4295.29 
 1208 , 4299.23 
 1209 , 4305.26 
 1210 , 4313.85 
 1211 , 4327.14 
 1212 , 4339.15 
 1213 , 4341.75 
 1214 , 4341.87 
 1215 , 4351.64 
 1216 , 4368.8 
 1217 , 4384.28 
 1218 , 4395.15 
 1219 , 4402.14 
 1220 , 4404.34 
 1221 , 4400.29 
 1222 , 4392.6 
 1223 , 4385.42 
 1224 , 4377.87 
 1225 , 4366.73 
 1226 , 4353.39 
 1227 , 4341.65 
 1228 , 4334.65 
 1229 , 4336.14 
 1230 , 4346.85 
 1231 , 4363.12 
 1232 , 4380.35 
 1233 , 4393.13 
 1234 , 4397.92 
 1235 , 4395.33 
 1236 , 4388.24 
 1237 , 4380.7 
 1238 , 4375.08 
 1239 , 4373.78 
 1240 , 4378.6 
 1241 , 4385.08 
 1242 , 4388.31 
 1243 , 4390.73 
 1244 , 4397.08 
 1245 , 4407.47 
 1246 , 4418.1 
 1247 , 4423.94 
 1248 , 4423.42 
 1249 , 4419.33 
 1250 , 4412.45 
 1251 , 4400.13 
 1252 , 4382.27 
 1253 , 4366.82 
 1254 , 4360.62 
 1255 , 4359.19 
 1256 , 4356.68 
 1257 , 4357.02 
 1258 , 4366.31 
 1259 , 4379.7 
 1260 , 4387.44 
 1261 , 4388.01 
 1262 , 4385.36 
 1263 , 4380.92 
 1264 , 4373.21 
 1265 , 4364.23 
 1266 , 4360.47 
 1267 , 4363.77 
 1268 , 4369.62 
 1269 , 4374.39 
 1270 , 4377.66 
 1271 , 4379.29 
 1272 , 4377.62 
 1273 , 4375.81 
 1274 , 4383.82 
 1275 , 4403.37 
 1276 , 4424.29 
 1277 , 4439.04 
 1278 , 4444.64 
 1279 , 4439.82 
 1280 , 4426.32 
 1281 , 4406.22 
 1282 , 4381.88 
 1283 , 4358.85 
 1284 , 4348.2 
 1285 , 4355.61 
 1286 , 4374.78 
 1287 , 4398.86 
 1288 , 4421.11 
 1289 , 4435.96 
 1290 , 4445.8 
 1291 , 4453.81 
 1292 , 4457.16 
 1293 , 4453.73 
 1294 , 4450.35 
 1295 , 4452.98 
 1296 , 4456.56 
 1297 , 4455.57 
 1298 , 4452.25 
 1299 , 4449.66 
 1300 , 4448.72 
 1301 , 4450.22 
 1302 , 4452.65 
 1303 , 4453.24 
 1304 , 4451.49 
 1305 , 4449.17 
 1306 , 4452 
 1307 , 4464.8 
 1308 , 4482.16 
 1309 , 4496.37 
 1310 , 4507.2 
 1311 , 4516.71 
 1312 , 4522.6 
 1313 , 4521.91 
 1314 , 4521.03 
 1315 , 4529.27 
 1316 , 4543.29 
 1317 , 4553.92 
 1318 , 4558.36 
 1319 , 4557.49 
 1320 , 4551.04 
 1321 , 4538.94 
 1322 , 4536.78 
 1323 , 4567.63 
 1324 , 4615.78 
 1325 , 4641.05 
 1326 , 4639.28 
 1327 , 4632.21 
 1328 , 4621.11 
 1329 , 4591.42 
 1330 , 4551.73 
 1331 , 4529.5 
 1332 , 4530.71 
 1333 , 4542.04 
 1334 , 4559.18 
 1335 , 4587.23 
 1336 , 4619.54 
 1337 , 4637.07 
 1338 , 4633.31 
 1339 , 4616.4 
 1340 , 4589.74 
 1341 , 4549.67 
 1342 , 4505.65 
 1343 , 4483.1 
 1344 , 4486.63 
 1345 , 4495.02 
 1346 , 4495.89 
 1347 , 4490.4 
 1348 , 4480.22 
 1349 , 4465.47 
 1350 , 4450.13 
 1351 , 4443.94 
 1352 , 4447.32 
 1353 , 4447.67 
 1354 , 4442.43 
 1355 , 4444.16 
 1356 , 4453.66 
 1357 , 4453.77 
 1358 , 4440.84 
 1359 , 4431.93 
 1360 , 4432.37 
 1361 , 4428.82 
 1362 , 4418.54 
 1363 , 4416.23 
 1364 , 4427.27 
 1365 , 4441.2 
 1366 , 4451.15 
 1367 , 4457.18 
 1368 , 4459.11 
 1369 , 4456.25 
 1370 , 4449.59 
 1371 , 4442.2 
 1372 , 4436.49 
 1373 , 4433.87 
 1374 , 4433.61 
 1375 , 4431.02 
 1376 , 4422.72 
 1377 , 4408.9 
 1378 , 4392.9 
 1379 , 4382.23 
 1380 , 4378.43 
 1381 , 4372.41 
 1382 , 4360.7 
 1383 , 4351.38 
 1384 , 4347 
 1385 , 4338.46 
 1386 , 4324.47 
 1387 , 4319.83 
 1388 , 4330.54 
 1389 , 4343.78 
 1390 , 4352.18 
 1391 , 4362.27 
 1392 , 4377.5 
 1393 , 4392.5 
 1394 , 4400.71 
 1395 , 4395.58 
 1396 , 4378.79 
 1397 , 4366.43 
 1398 , 4365.64 
 1399 , 4365.19 
 1400 , 4360.63 
 1401 , 4362.72 
 1402 , 4374.96 
 1403 , 4385.26 
 1404 , 4388.46 
 1405 , 4394.43 
 1406 , 4409.58 
 1407 , 4431.64 
