03-12-2024,13:42:58
Wavenumber(cm-1),Intensity
 250 , 3436.65 
 251 , 3436.65 
 252 , 3413.35 
 253 , 3387.81 
 254 , 3363 
 255 , 3340.31 
 256 , 3317.71 
 257 , 3293.33 
 258 , 3270.9 
 259 , 3256.99 
 260 , 3253.5 
 261 , 3254.3 
 262 , 3253.41 
 263 , 3250.81 
 264 , 3248.76 
 265 , 3246.71 
 266 , 3240.31 
 267 , 3226.03 
 268 , 3205.69 
 269 , 3182.72 
 270 , 3160.85 
 271 , 3144.06 
 272 , 3135.13 
 273 , 3132.69 
 274 , 3134.47 
 275 , 3138.4 
 276 , 3142.53 
 277 , 3145.02 
 278 , 3144.37 
 279 , 3139.24 
 280 , 3129.82 
 281 , 3117.17 
 282 , 3103.35 
 283 , 3092.19 
 284 , 3087.14 
 285 , 3087.28 
 286 , 3089.84 
 287 , 3092.49 
 288 , 3093.55 
 289 , 3091.86 
 290 , 3088.45 
 291 , 3085.01 
 292 , 3081.54 
 293 , 3076.3 
 294 , 3068.42 
 295 , 3060.18 
 296 , 3054.31 
 297 , 3050.41 
 298 , 3045.77 
 299 , 3038.86 
 300 , 3031.03 
 301 , 3024.05 
 302 , 3019.39 
 303 , 3018.35 
 304 , 3021.38 
 305 , 3027.36 
 306 , 3035.1 
 307 , 3043.79 
 308 , 3052.73 
 309 , 3059.76 
 310 , 3060.97 
 311 , 3054.04 
 312 , 3043.45 
 313 , 3035.18 
 314 , 3030.92 
 315 , 3028.83 
 316 , 3027.69 
 317 , 3028.31 
 318 , 3031.68 
 319 , 3037.04 
 320 , 3042.59 
 321 , 3047.49 
 322 , 3052.61 
 323 , 3058.76 
 324 , 3065.25 
 325 , 3070.73 
 326 , 3073.63 
 327 , 3071.98 
 328 , 3064.62 
 329 , 3053.72 
 330 , 3042.19 
 331 , 3032.01 
 332 , 3024.34 
 333 , 3019.98 
 334 , 3018.67 
 335 , 3020 
 336 , 3023.2 
 337 , 3027.29 
 338 , 3031.03 
 339 , 3032.73 
 340 , 3031.28 
 341 , 3029.36 
 342 , 3030.88 
 343 , 3035.31 
 344 , 3037.22 
 345 , 3033.21 
 346 , 3028.17 
 347 , 3028.23 
 348 , 3031.77 
 349 , 3031.56 
 350 , 3024.83 
 351 , 3018.77 
 352 , 3020.55 
 353 , 3026.81 
 354 , 3029.47 
 355 , 3026.43 
 356 , 3023.93 
 357 , 3026.77 
 358 , 3030.67 
 359 , 3029.12 
 360 , 3021.98 
 361 , 3014.76 
 362 , 3010.71 
 363 , 3006.68 
 364 , 2999.16 
 365 , 2991.36 
 366 , 2990.09 
 367 , 2997.48 
 368 , 3007.85 
 369 , 3015.77 
 370 , 3021.25 
 371 , 3025.99 
 372 , 3028.68 
 373 , 3025.02 
 374 , 3013.14 
 375 , 2999.32 
 376 , 2990.77 
 377 , 2988 
 378 , 2987.42 
 379 , 2987.29 
 380 , 2989.48 
 381 , 2995.48 
 382 , 3002.6 
 383 , 3006.72 
 384 , 3008.57 
 385 , 3014.1 
 386 , 3026.97 
 387 , 3042.43 
 388 , 3054.38 
 389 , 3061.68 
 390 , 3066.46 
 391 , 3069.41 
 392 , 3068.43 
 393 , 3061.87 
 394 , 3052.36 
 395 , 3044.09 
 396 , 3038.91 
 397 , 3036.18 
 398 , 3035.48 
 399 , 3037.72 
 400 , 3043.87 
 401 , 3052.46 
 402 , 3060.51 
 403 , 3066.56 
 404 , 3071.96 
 405 , 3077.89 
 406 , 3082.98 
 407 , 3085 
 408 , 3083.54 
 409 , 3080.05 
 410 , 3075.56 
 411 , 3069.5 
 412 , 3061.14 
 413 , 3051.16 
 414 , 3041.02 
 415 , 3031.96 
 416 , 3025.01 
 417 , 3020.96 
 418 , 3019.72 
 419 , 3020.88 
 420 , 3023.69 
 421 , 3027.11 
 422 , 3030.27 
 423 , 3032.76 
 424 , 3034.36 
 425 , 3035.93 
 426 , 3038.84 
 427 , 3043.36 
 428 , 3048.18 
 429 , 3051.9 
 430 , 3053 
 431 , 3050.12 
 432 , 3043.91 
 433 , 3036.58 
 434 , 3029.71 
 435 , 3023.41 
 436 , 3017.92 
 437 , 3015.47 
 438 , 3018.95 
 439 , 3027.73 
 440 , 3037.16 
 441 , 3044.11 
 442 , 3050.71 
 443 , 3059.7 
 444 , 3068.6 
 445 , 3071.95 
 446 , 3068.97 
 447 , 3066.38 
 448 , 3069.65 
 449 , 3074.97 
 450 , 3076.2 
 451 , 3074.48 
 452 , 3077.05 
 453 , 3086.43 
 454 , 3094 
 455 , 3091.25 
 456 , 3081.22 
 457 , 3071.66 
 458 , 3064.82 
 459 , 3056.63 
 460 , 3044.78 
 461 , 3033.82 
 462 , 3028.94 
 463 , 3028.2 
 464 , 3025.46 
 465 , 3018.62 
 466 , 3011.89 
 467 , 3008.74 
 468 , 3006.88 
 469 , 3002.6 
 470 , 2995.41 
 471 , 2987.43 
 472 , 2980.05 
 473 , 2973.07 
 474 , 2966.42 
 475 , 2962.1 
 476 , 2962.84 
 477 , 2969.04 
 478 , 2978.67 
 479 , 2989.85 
 480 , 3001.31 
 481 , 3011.9 
 482 , 3020.54 
 483 , 3026.21 
 484 , 3028.19 
 485 , 3026.14 
 486 , 3020.16 
 487 , 3011.73 
 488 , 3002.51 
 489 , 2992.43 
 490 , 2980.34 
 491 , 2967.03 
 492 , 2956.46 
 493 , 2951.93 
 494 , 2952.45 
 495 , 2955.79 
 496 , 2959.44 
 497 , 2960.68 
 498 , 2958.67 
 499 , 2956.26 
 500 , 2955.95 
 501 , 2955.7 
 502 , 2952.07 
 503 , 2945.86 
 504 , 2941.74 
 505 , 2941.71 
 506 , 2941 
 507 , 2935.01 
 508 , 2927.24 
 509 , 2924.36 
 510 , 2927.53 
 511 , 2931.99 
 512 , 2934.26 
 513 , 2935.47 
 514 , 2937.06 
 515 , 2936.93 
 516 , 2931.32 
 517 , 2920.08 
 518 , 2907.52 
 519 , 2897.61 
 520 , 2892.24 
 521 , 2892.46 
 522 , 2895.66 
 523 , 2897.22 
 524 , 2896.04 
 525 , 2895.95 
 526 , 2899.29 
 527 , 2901.96 
 528 , 2898.94 
 529 , 2891.63 
 530 , 2885.24 
 531 , 2881.57 
 532 , 2877.27 
 533 , 2869.96 
 534 , 2862.89 
 535 , 2860.45 
 536 , 2863.4 
 537 , 2870.16 
 538 , 2879.21 
 539 , 2889.18 
 540 , 2898.69 
 541 , 2906.2 
 542 , 2910.18 
 543 , 2909.61 
 544 , 2903.86 
 545 , 2893.91 
 546 , 2883.32 
 547 , 2875.15 
 548 , 2868.9 
 549 , 2863.28 
 550 , 2859.75 
 551 , 2861.66 
 552 , 2869.29 
 553 , 2877.58 
 554 , 2881.83 
 555 , 2881.61 
 556 , 2877.68 
 557 , 2870.69 
 558 , 2861.23 
 559 , 2850.25 
 560 , 2839.27 
 561 , 2829.75 
 562 , 2822.7 
 563 , 2818.89 
 564 , 2817.51 
 565 , 2816.67 
 566 , 2815.56 
 567 , 2815.3 
 568 , 2817.11 
 569 , 2821.8 
 570 , 2829.89 
 571 , 2839.73 
 572 , 2848.17 
 573 , 2853.36 
 574 , 2855.61 
 575 , 2854.64 
 576 , 2847.24 
 577 , 2829.98 
 578 , 2806.14 
 579 , 2783.23 
 580 , 2764.64 
 581 , 2747.4 
 582 , 2729.49 
 583 , 2714.32 
 584 , 2706.03 
 585 , 2703.95 
 586 , 2704.58 
 587 , 2707.29 
 588 , 2715.42 
 589 , 2730.88 
 590 , 2749.56 
 591 , 2766.43 
 592 , 2779.81 
 593 , 2789.88 
 594 , 2796.81 
 595 , 2800.82 
 596 , 2801.83 
 597 , 2798.92 
 598 , 2791.37 
 599 , 2781.28 
 600 , 2771.99 
 601 , 2764.95 
 602 , 2759.47 
 603 , 2755.67 
 604 , 2755.93 
 605 , 2762.49 
 606 , 2773.89 
 607 , 2787.24 
 608 , 2800.02 
 609 , 2810.07 
 610 , 2816.67 
 611 , 2822.11 
 612 , 2828.29 
 613 , 2832.76 
 614 , 2831.93 
 615 , 2826.51 
 616 , 2820.58 
 617 , 2816.38 
 618 , 2812.67 
 619 , 2808.57 
 620 , 2806.21 
 621 , 2808.15 
 622 , 2811.97 
 623 , 2812.21 
 624 , 2807.77 
 625 , 2803.92 
 626 , 2804.59 
 627 , 2807.42 
 628 , 2809.26 
 629 , 2811.25 
 630 , 2816.59 
 631 , 2824.71 
 632 , 2830.66 
 633 , 2831.53 
 634 , 2830.3 
 635 , 2830.22 
 636 , 2830.38 
 637 , 2828.31 
 638 , 2823.9 
 639 , 2819.08 
 640 , 2815.15 
 641 , 2811.98 
 642 , 2810.24 
 643 , 2815.27 
 644 , 2833.19 
 645 , 2862.88 
 646 , 2898.25 
 647 , 2931.04 
 648 , 2949.88 
 649 , 2946.61 
 650 , 2924.74 
 651 , 2890.3 
 652 , 2849.22 
 653 , 2807.43 
 654 , 2771.95 
 655 , 2751.05 
 656 , 2748.55 
 657 , 2757.28 
 658 , 2768.99 
 659 , 2778.49 
 660 , 2781.91 
 661 , 2779.05 
 662 , 2772.61 
 663 , 2764.49 
 664 , 2755.11 
 665 , 2745.28 
 666 , 2738.01 
 667 , 2736.47 
 668 , 2739.62 
 669 , 2744.18 
 670 , 2748.42 
 671 , 2752.56 
 672 , 2756.42 
 673 , 2758.54 
 674 , 2757.72 
 675 , 2755.57 
 676 , 2754.64 
 677 , 2754.47 
 678 , 2752.11 
 679 , 2746.08 
 680 , 2737.53 
 681 , 2727.7 
 682 , 2717.29 
 683 , 2706.87 
 684 , 2697.38 
 685 , 2690.01 
 686 , 2686.71 
 687 , 2690.28 
 688 , 2701.6 
 689 , 2716.43 
 690 , 2730.35 
 691 , 2742.44 
 692 , 2752.83 
 693 , 2759.37 
 694 , 2758.18 
 695 , 2748.93 
 696 , 2737.07 
 697 , 2727.13 
 698 , 2718.77 
 699 , 2710.83 
 700 , 2704.39 
 701 , 2701.51 
 702 , 2701.79 
 703 , 2702.28 
 704 , 2701.59 
 705 , 2701.78 
 706 , 2704.56 
 707 , 2707.84 
 708 , 2708.7 
 709 , 2707.46 
 710 , 2706.47 
 711 , 2706.84 
 712 , 2708.03 
 713 , 2710.18 
 714 , 2715.54 
 715 , 2726.16 
 716 , 2740.61 
 717 , 2756.18 
 718 , 2770.13 
 719 , 2779.75 
 720 , 2783.67 
 721 , 2782.61 
 722 , 2777.74 
 723 , 2771.1 
 724 , 2764.86 
 725 , 2760.79 
 726 , 2760.42 
 727 , 2763.76 
 728 , 2769.4 
 729 , 2775.16 
 730 , 2777.44 
 731 , 2773.63 
 732 , 2765.82 
 733 , 2756.86 
 734 , 2746.03 
 735 , 2730.89 
 736 , 2714.15 
 737 , 2704.04 
 738 , 2704.2 
 739 , 2707.79 
 740 , 2708.53 
 741 , 2708.89 
 742 , 2713.27 
 743 , 2720.41 
 744 , 2725.75 
 745 , 2728.44 
 746 , 2731.98 
 747 , 2737.78 
 748 , 2741.8 
 749 , 2740.3 
 750 , 2735.15 
 751 , 2729.72 
 752 , 2724.3 
 753 , 2717.27 
 754 , 2708.47 
 755 , 2699.62 
 756 , 2692.01 
 757 , 2685.6 
 758 , 2680.31 
 759 , 2677.09 
 760 , 2677.09 
 761 , 2680.05 
 762 , 2684.78 
 763 , 2689.84 
 764 , 2693.45 
 765 , 2694.55 
 766 , 2693.96 
 767 , 2692.8 
 768 , 2692.41 
 769 , 2694.09 
 770 , 2697.97 
 771 , 2703.41 
 772 , 2708.4 
 773 , 2709.33 
 774 , 2705.3 
 775 , 2702.49 
 776 , 2706.26 
 777 , 2712.45 
 778 , 2714.68 
 779 , 2714.88 
 780 , 2720.11 
 781 , 2730.96 
 782 , 2740.33 
 783 , 2743.62 
 784 , 2743.1 
 785 , 2741.34 
 786 , 2737.59 
 787 , 2730.46 
 788 , 2722.03 
 789 , 2716.24 
 790 , 2714.84 
 791 , 2717.06 
 792 , 2721.94 
 793 , 2728.35 
 794 , 2734.7 
 795 , 2737.67 
 796 , 2734.13 
 797 , 2726.65 
 798 , 2720.54 
 799 , 2718.04 
 800 , 2718.43 
 801 , 2720.6 
 802 , 2722.93 
 803 , 2724.05 
 804 , 2723.48 
 805 , 2720.89 
 806 , 2715.7 
 807 , 2707.4 
 808 , 2699.09 
 809 , 2696.74 
 810 , 2703.71 
 811 , 2719.38 
 812 , 2741.64 
 813 , 2765.07 
 814 , 2783.74 
 815 , 2791.94 
 816 , 2784.94 
 817 , 2769 
 818 , 2757.49 
 819 , 2758.89 
 820 , 2775.54 
 821 , 2804.46 
 822 , 2831.63 
 823 , 2844.66 
 824 , 2844.65 
 825 , 2836.01 
 826 , 2819.7 
 827 , 2795.28 
 828 , 2770.52 
 829 , 2760.92 
 830 , 2770.94 
 831 , 2785.7 
 832 , 2792.31 
 833 , 2790.42 
 834 , 2782.44 
 835 , 2772.22 
 836 , 2763.78 
 837 , 2756.41 
 838 , 2746.07 
 839 , 2733.09 
 840 , 2723.46 
 841 , 2721.02 
 842 , 2723.87 
 843 , 2730.16 
 844 , 2741.88 
 845 , 2761.51 
 846 , 2786.5 
 847 , 2811.85 
 848 , 2834.56 
 849 , 2853.44 
 850 , 2866.98 
 851 , 2873.07 
 852 , 2871.13 
 853 , 2865.14 
 854 , 2859.27 
 855 , 2854.04 
 856 , 2848.67 
 857 , 2841.72 
 858 , 2831.4 
 859 , 2816.98 
 860 , 2798.9 
 861 , 2778.4 
 862 , 2758.15 
 863 , 2740.84 
 864 , 2728.67 
 865 , 2723.29 
 866 , 2723.46 
 867 , 2726.67 
 868 , 2730.43 
 869 , 2732.25 
 870 , 2730.59 
 871 , 2725.1 
 872 , 2716.06 
 873 , 2705.02 
 874 , 2693.65 
 875 , 2683.45 
 876 , 2676.03 
 877 , 2674.06 
 878 , 2680.36 
 879 , 2691.85 
 880 , 2700.81 
 881 , 2704.11 
 882 , 2704.95 
 883 , 2705.53 
 884 , 2704.57 
 885 , 2700.96 
 886 , 2696.55 
 887 , 2693.5 
 888 , 2690.45 
 889 , 2684.56 
 890 , 2676.57 
 891 , 2670.06 
 892 , 2665.77 
 893 , 2660.37 
 894 , 2652.09 
 895 , 2643.63 
 896 , 2637.68 
 897 , 2634.17 
 898 , 2632.65 
 899 , 2635.48 
 900 , 2645.9 
 901 , 2661.46 
 902 , 2675.16 
 903 , 2683.45 
 904 , 2687.49 
 905 , 2689.08 
 906 , 2690.77 
 907 , 2694.59 
 908 , 2700.09 
 909 , 2706.12 
 910 , 2710.6 
 911 , 2711.18 
 912 , 2708 
 913 , 2702.97 
 914 , 2698.24 
 915 , 2696.14 
 916 , 2697.64 
 917 , 2700.85 
 918 , 2703.66 
 919 , 2704.44 
 920 , 2701.99 
 921 , 2697.31 
 922 , 2692.04 
 923 , 2685.92 
 924 , 2677.59 
 925 , 2667.96 
 926 , 2660.29 
 927 , 2656 
 928 , 2653.24 
 929 , 2650.8 
 930 , 2650.27 
 931 , 2652.95 
 932 , 2656.48 
 933 , 2657.54 
 934 , 2654.73 
 935 , 2647.66 
 936 , 2636.85 
 937 , 2623.58 
 938 , 2609.75 
 939 , 2598.06 
 940 , 2590.13 
 941 , 2585.11 
 942 , 2582.25 
 943 , 2582.42 
 944 , 2586.38 
 945 , 2591.89 
 946 , 2595.84 
 947 , 2599.25 
 948 , 2605.65 
 949 , 2614.66 
 950 , 2621.92 
 951 , 2625.4 
 952 , 2627.21 
 953 , 2628.94 
 954 , 2629.82 
 955 , 2629.33 
 956 , 2629.92 
 957 , 2634.14 
 958 , 2639.17 
 959 , 2640.06 
 960 , 2637.81 
 961 , 2637.6 
 962 , 2640.17 
 963 , 2640.97 
 964 , 2637.42 
 965 , 2631.04 
 966 , 2623.42 
 967 , 2614.97 
 968 , 2606.44 
 969 , 2601.24 
 970 , 2603.09 
 971 , 2611.88 
 972 , 2625.41 
 973 , 2639.23 
 974 , 2647.24 
 975 , 2646.38 
 976 , 2637.33 
 977 , 2622.66 
 978 , 2607.96 
 979 , 2598.24 
 980 , 2595.63 
 981 , 2601.14 
 982 , 2612.85 
 983 , 2627.98 
 984 , 2643.47 
 985 , 2656.37 
 986 , 2666.14 
 987 , 2674.07 
 988 , 2680.29 
 989 , 2683.62 
 990 , 2684.14 
 991 , 2684.43 
 992 , 2686.21 
 993 , 2688.16 
 994 , 2688.9 
 995 , 2689.15 
 996 , 2690.11 
 997 , 2692.25 
 998 , 2695.72 
 999 , 2701.11 
 1000 , 2709.15 
 1001 , 2717.08 
 1002 , 2718.7 
 1003 , 2711.53 
 1004 , 2699.17 
 1005 , 2684.25 
 1006 , 2665.84 
 1007 , 2644.31 
 1008 , 2626.73 
 1009 , 2619.81 
 1010 , 2619.08 
 1011 , 2616.67 
 1012 , 2610.91 
 1013 , 2603.63 
 1014 , 2597.09 
 1015 , 2593.81 
 1016 , 2595.04 
 1017 , 2600.41 
 1018 , 2607.85 
 1019 , 2612.32 
 1020 , 2610.08 
 1021 , 2602.03 
 1022 , 2590.77 
 1023 , 2583.11 
 1024 , 2585.81 
 1025 , 2597.29 
 1026 , 2612.59 
 1027 , 2628.35 
 1028 , 2642.14 
 1029 , 2649.58 
 1030 , 2644.7 
 1031 , 2628.75 
 1032 , 2612.94 
 1033 , 2604.6 
 1034 , 2601.76 
 1035 , 2601.94 
 1036 , 2604.56 
 1037 , 2609.56 
 1038 , 2617.58 
 1039 , 2629.07 
 1040 , 2641.71 
 1041 , 2652.18 
 1042 , 2660.37 
 1043 , 2668.02 
 1044 , 2673.63 
 1045 , 2672.73 
 1046 , 2663.42 
 1047 , 2647.37 
 1048 , 2628.55 
 1049 , 2614.86 
 1050 , 2611.55 
 1051 , 2614.97 
 1052 , 2621.07 
 1053 , 2630.89 
 1054 , 2645.38 
 1055 , 2656.03 
 1056 , 2652.26 
 1057 , 2640.55 
 1058 , 2636.48 
 1059 , 2641.3 
 1060 , 2644.48 
 1061 , 2642.42 
 1062 , 2640.04 
 1063 , 2638.27 
 1064 , 2630.53 
 1065 , 2615.19 
 1066 , 2604.19 
 1067 , 2606.87 
 1068 , 2616.42 
 1069 , 2623.56 
 1070 , 2624.62 
 1071 , 2617.82 
 1072 , 2602.1 
 1073 , 2577.35 
 1074 , 2550.79 
 1075 , 2534.17 
 1076 , 2531 
 1077 , 2537.13 
 1078 , 2549.7 
 1079 , 2567.84 
 1080 , 2589.42 
 1081 , 2609.61 
 1082 , 2624.66 
 1083 , 2634.41 
 1084 , 2639.5 
 1085 , 2641.43 
 1086 , 2641.47 
 1087 , 2638.34 
 1088 , 2630.58 
 1089 , 2621.83 
 1090 , 2617.59 
 1091 , 2616.18 
 1092 , 2611.36 
 1093 , 2602.27 
 1094 , 2592.97 
 1095 , 2585.62 
 1096 , 2579.64 
 1097 , 2574.28 
 1098 , 2568.69 
 1099 , 2563.24 
 1100 , 2561.13 
 1101 , 2563.83 
 1102 , 2565.54 
 1103 , 2561.09 
 1104 , 2555.7 
 1105 , 2556.28 
 1106 , 2560.07 
 1107 , 2561.03 
 1108 , 2560.86 
 1109 , 2565.3 
 1110 , 2572.89 
 1111 , 2576.79 
 1112 , 2576.03 
 1113 , 2575.99 
 1114 , 2578.72 
 1115 , 2581.09 
 1116 , 2581.76 
 1117 , 2583.55 
 1118 , 2587.61 
 1119 , 2589.62 
 1120 , 2586.07 
 1121 , 2579.67 
 1122 , 2573.99 
 1123 , 2569.55 
 1124 , 2565.63 
 1125 , 2559.47 
 1126 , 2548.31 
 1127 , 2538.49 
 1128 , 2540.7 
 1129 , 2551.47 
 1130 , 2556.84 
 1131 , 2553.8 
 1132 , 2550.67 
 1133 , 2551.52 
 1134 , 2554.04 
 1135 , 2556.22 
 1136 , 2557.46 
 1137 , 2557.88 
 1138 , 2559.11 
 1139 , 2560.8 
 1140 , 2555.7 
 1141 , 2539.12 
 1142 , 2523.45 
 1143 , 2522.81 
 1144 , 2533.95 
 1145 , 2547.88 
 1146 , 2560.48 
 1147 , 2570.06 
 1148 , 2576.01 
 1149 , 2578.34 
 1150 , 2577.04 
 1151 , 2572.17 
 1152 , 2567.32 
 1153 , 2569.78 
 1154 , 2580.48 
 1155 , 2591.35 
 1156 , 2598.54 
 1157 , 2606.94 
 1158 , 2619.02 
 1159 , 2629.41 
 1160 , 2634.2 
 1161 , 2637.5 
 1162 , 2643.37 
 1163 , 2649.51 
 1164 , 2652.62 
 1165 , 2652.91 
 1166 , 2651.44 
 1167 , 2646.82 
 1168 , 2637.1 
 1169 , 2625.62 
 1170 , 2618.19 
 1171 , 2613.38 
 1172 , 2604.93 
 1173 , 2593.45 
 1174 , 2585.8 
 1175 , 2584.13 
 1176 , 2584.89 
 1177 , 2585.55 
 1178 , 2585.58 
 1179 , 2584.81 
 1180 , 2583.49 
 1181 , 2581.69 
 1182 , 2579 
 1183 , 2575.37 
 1184 , 2572.1 
 1185 , 2569.79 
 1186 , 2565.39 
 1187 , 2555.91 
 1188 , 2543.14 
 1189 , 2530.17 
 1190 , 2518.87 
 1191 , 2510.66 
 1192 , 2507.45 
 1193 , 2511.2 
 1194 , 2521.76 
 1195 , 2537.55 
 1196 , 2555.16 
 1197 , 2569.8 
 1198 , 2579.61 
 1199 , 2585.49 
 1200 , 2587.05 
 1201 , 2582.33 
 1202 , 2572.86 
 1203 , 2565.4 
 1204 , 2563.84 
 1205 , 2566.14 
 1206 , 2569.32 
 1207 , 2569.66 
 1208 , 2565.35 
 1209 , 2560.13 
 1210 , 2556.24 
 1211 , 2547.4 
 1212 , 2529.08 
 1213 , 2512.78 
 1214 , 2511.11 
 1215 , 2518.76 
 1216 , 2526.2 
 1217 , 2537.2 
 1218 , 2559.11 
 1219 , 2582.18 
 1220 , 2589.46 
 1221 , 2582.14 
 1222 , 2572.17 
 1223 , 2563.24 
 1224 , 2552.82 
 1225 , 2542.09 
 1226 , 2535.55 
 1227 , 2533.01 
 1228 , 2529.13 
 1229 , 2522.65 
 1230 , 2517.88 
 1231 , 2518.09 
 1232 , 2524.27 
 1233 , 2535.37 
 1234 , 2546.94 
 1235 , 2555.29 
 1236 , 2559.46 
 1237 , 2559.3 
 1238 , 2555.99 
 1239 , 2550.62 
 1240 , 2543.3 
 1241 , 2534.86 
 1242 , 2529.89 
 1243 , 2532.54 
 1244 , 2540.32 
 1245 , 2549.11 
 1246 , 2557.08 
 1247 , 2563.09 
 1248 , 2565.11 
 1249 , 2561.29 
 1250 , 2554.47 
 1251 , 2549.77 
 1252 , 2550.86 
 1253 , 2560.16 
 1254 , 2574.69 
 1255 , 2587.79 
 1256 , 2594.66 
 1257 , 2592.36 
 1258 , 2582.46 
 1259 , 2570.66 
 1260 , 2560.04 
 1261 , 2550.58 
 1262 , 2542.55 
 1263 , 2536.72 
 1264 , 2532.62 
 1265 , 2527.89 
 1266 , 2522.95 
 1267 , 2523.15 
 1268 , 2530.44 
 1269 , 2539 
 1270 , 2544.39 
 1271 , 2547.54 
 1272 , 2548.73 
 1273 , 2544.67 
 1274 , 2534.27 
 1275 , 2525.27 
 1276 , 2524.88 
 1277 , 2532.24 
 1278 , 2543.86 
 1279 , 2553.03 
 1280 , 2553.95 
 1281 , 2549.34 
 1282 , 2543.74 
 1283 , 2537.1 
 1284 , 2528.47 
 1285 , 2521.53 
 1286 , 2521.18 
 1287 , 2527.54 
 1288 , 2538.5 
 1289 , 2551.57 
 1290 , 2564.16 
 1291 , 2574.83 
 1292 , 2582.86 
 1293 , 2588.76 
 1294 , 2593.61 
 1295 , 2596.21 
 1296 , 2593.86 
 1297 , 2588.34 
 1298 , 2584.8 
 1299 , 2580.79 
 1300 , 2567.04 
 1301 , 2544.5 
 1302 , 2524.75 
 1303 , 2511.77 
 1304 , 2500.33 
 1305 , 2489.92 
 1306 , 2486.62 
 1307 , 2490.66 
 1308 , 2493.33 
 1309 , 2491.16 
 1310 , 2490.08 
 1311 , 2493.98 
 1312 , 2501.74 
 1313 , 2512.33 
 1314 , 2525.84 
 1315 , 2540.19 
 1316 , 2548.48 
 1317 , 2546.93 
 1318 , 2540.68 
 1319 , 2534.85 
 1320 , 2531.28 
 1321 , 2531.27 
 1322 , 2536.12 
 1323 , 2545.71 
 1324 , 2555.53 
 1325 , 2561.43 
 1326 , 2563.71 
 1327 , 2564.2 
 1328 , 2566.86 
 1329 , 2574.31 
 1330 , 2581.52 
 1331 , 2583.26 
 1332 , 2582.48 
 1333 , 2583.32 
 1334 , 2584.24 
 1335 , 2582.6 
 1336 , 2579.69 
 1337 , 2577.33 
 1338 , 2573.01 
 1339 , 2563.21 
 1340 , 2548.34 
 1341 , 2531.09 
 1342 , 2519.64 
 1343 , 2522.36 
 1344 , 2531.45 
 1345 , 2533.57 
 1346 , 2531.16 
 1347 , 2533.22 
 1348 , 2537.84 
 1349 , 2538.17 
 1350 , 2534.22 
 1351 , 2529.53 
 1352 , 2524.34 
 1353 , 2516.94 
 1354 , 2506.71 
 1355 , 2494.31 
 1356 , 2487.73 
 1357 , 2498.46 
 1358 , 2521.01 
 1359 , 2538.75 
 1360 , 2546.49 
 1361 , 2547.56 
 1362 , 2543.03 
 1363 , 2532.36 
 1364 , 2519.22 
 1365 , 2510.4 
 1366 , 2507.8 
 1367 , 2509.16 
 1368 , 2513.23 
 1369 , 2519.82 
 1370 , 2529.29 
 1371 , 2542.32 
 1372 , 2555.76 
 1373 , 2562.98 
 1374 , 2563.37 
 1375 , 2562.13 
 1376 , 2559.18 
 1377 , 2548.96 
 1378 , 2533.7 
 1379 , 2523.9 
 1380 , 2522.61 
 1381 , 2524.37 
 1382 , 2525.64 
 1383 , 2525.47 
 1384 , 2521.36 
 1385 , 2508.99 
 1386 , 2487.64 
 1387 , 2461.14 
 1388 , 2435.48 
 1389 , 2418.87 
 1390 , 2416.26 
 1391 , 2428.19 
 1392 , 2449.41 
 1393 , 2467.81 
 1394 , 2476.75 
 1395 , 2477.23 
 1396 , 2472.32 
 1397 , 2467.12 
 1398 , 2465.38 
 1399 , 2468.79 
 1400 , 2477.07 
 1401 , 2487.44 
 1402 , 2497.16 
 1403 , 2503.8 
 1404 , 2505.77 
 1405 , 2502.62 
 1406 , 2497.32 
